#Time TotalMass(kg) flux(x0) flux(x1) flux(y0) flux(y1)
60 0.000441763 0 -2.24714e-06 0 0
68.484 0.000504228 0 -2.24711e-06 0 0
76.968 0.000566692 0 -2.24711e-06 0 0
85.452 0.000629156 0 -2.2471e-06 0 0
94.7828 0.000697854 0 -2.2471e-06 0 0
104.114 0.000766551 0 -2.24709e-06 0 0
113.444 0.000835249 0 -2.24709e-06 0 0
122.775 0.000903946 0 -2.24709e-06 0 0
132.106 0.000972643 0 -2.24708e-06 0 0
142.37 0.00104821 0 -2.24708e-06 0 0
152.634 0.00112377 0 -2.24708e-06 0 0
162.898 0.00119934 0 -2.24707e-06 0 0
173.161 0.00127491 0 -2.24707e-06 0 0
183.425 0.00135047 0 -2.24706e-06 0 0
194.715 0.00143359 0 -2.24706e-06 0 0
206.005 0.0015167 0 -2.24706e-06 0 0
217.295 0.00159982 0 -2.24705e-06 0 0
228.585 0.00168294 0 -2.24705e-06 0 0
239.875 0.00176605 0 -2.24704e-06 0 0
252.29 0.00185746 0 -2.24704e-06 0 0
264.706 0.00194886 0 -2.24703e-06 0 0
277.121 0.00204026 0 -2.24703e-06 0 0
289.537 0.00213166 0 -2.24702e-06 0 0
301.953 0.00222306 0 -2.24702e-06 0 0
315.607 0.00232358 0 -2.24701e-06 0 0
329.261 0.0024241 0 -2.24701e-06 0 0
342.915 0.00252461 0 -2.247e-06 0 0
356.57 0.00262513 0 -2.247e-06 0 0
370.224 0.00272565 0 -2.24699e-06 0 0
385.242 0.0028362 0 -2.24699e-06 0 0
400.259 0.00294675 0 -2.24698e-06 0 0
415.277 0.0030573 0 -2.24697e-06 0 0
430.295 0.00316785 0 -2.24697e-06 0 0
445.312 0.00327839 0 -2.24696e-06 0 0
461.823 0.00339993 0 -2.24696e-06 0 0
478.334 0.00352147 0 -2.24695e-06 0 0
494.845 0.00364301 0 -2.24694e-06 0 0
511.356 0.00376455 0 -2.24694e-06 0 0
527.867 0.00388608 0 -2.24693e-06 0 0
546.026 0.00401975 0 -2.24692e-06 0 0
564.185 0.00415341 0 -2.24692e-06 0 0
582.344 0.00428708 0 -2.24691e-06 0 0
600.503 0.00442074 0 -2.2469e-06 0 0
618.662 0.0045544 0 -2.24689e-06 0 0
638.636 0.00470142 0 -2.24689e-06 0 0
658.61 0.00484843 0 -2.24688e-06 0 0
678.584 0.00499544 0 -2.24687e-06 0 0
698.557 0.00514246 0 -2.24686e-06 0 0
718.531 0.00528947 0 -2.24686e-06 0 0
740.498 0.00545114 0 -2.24685e-06 0 0
762.464 0.00561282 0 -2.24684e-06 0 0
784.431 0.00577449 0 -2.24683e-06 0 0
806.397 0.00593616 0 -2.24682e-06 0 0
828.364 0.00609783 0 -2.24681e-06 0 0
852.513 0.00627556 0 -2.2468e-06 0 0
876.661 0.00645328 0 -2.2468e-06 0 0
900.81 0.00663101 0 -2.24679e-06 0 0
924.959 0.00680873 0 -2.24678e-06 0 0
949.107 0.00698645 0 -2.24677e-06 0 0
975.662 0.00718187 0 -2.24676e-06 0 0
1002.22 0.00737729 0 -2.24675e-06 0 0
1028.77 0.00757271 0 -2.24674e-06 0 0
1055.33 0.00776812 0 -2.24673e-06 0 0
1081.88 0.00796353 0 -2.24671e-06 0 0
1111.09 0.00817848 0 -2.2467e-06 0 0
1140.3 0.00839343 0 -2.24669e-06 0 0
1169.51 0.00860837 0 -2.24668e-06 0 0
1198.72 0.00882331 0 -2.24667e-06 0 0
1227.93 0.00903825 0 -2.24666e-06 0 0
1260.04 0.00927453 0 -2.24665e-06 0 0
1292.16 0.00951081 0 -2.24663e-06 0 0
1324.27 0.00974709 0 -2.24662e-06 0 0
1356.38 0.00998336 0 -2.24661e-06 0 0
1388.49 0.0102196 0 -2.2466e-06 0 0
1423.81 0.0104795 0 -2.24658e-06 0 0
1459.14 0.0107394 0 -2.24657e-06 0 0
1494.46 0.0109993 0 -2.24655e-06 0 0
1529.78 0.0112592 0 -2.24654e-06 0 0
1565.1 0.011519 0 -2.24653e-06 0 0
1603.95 0.0118048 0 -2.24651e-06 0 0
1642.8 0.0120906 0 -2.2465e-06 0 0
1681.64 0.0123764 0 -2.24648e-06 0 0
1720.49 0.0126621 0 -2.24647e-06 0 0
1759.33 0.0129479 0 -2.24645e-06 0 0
1802.06 0.0132622 0 -2.24643e-06 0 0
1844.78 0.0135765 0 -2.24642e-06 0 0
1887.5 0.0138907 0 -2.2464e-06 0 0
1930.23 0.014205 0 -2.24638e-06 0 0
1972.95 0.0145192 0 -2.24637e-06 0 0
2019.9 0.0148646 0 -2.24635e-06 0 0
2066.85 0.0152099 0 -2.24633e-06 0 0
2113.79 0.0155551 0 -2.24631e-06 0 0
2160.74 0.0159004 0 -2.24629e-06 0 0
2207.69 0.0162457 0 -2.24627e-06 0 0
2259.25 0.0166249 0 -2.24627e-06 0 0
2310.81 0.0170041 0 -2.24625e-06 0 0
2362.37 0.0173833 0 -2.24623e-06 0 0
2413.94 0.0177625 0 -2.2462e-06 0 0
2465.5 0.0181417 0 -2.24618e-06 0 0
2522.15 0.0185583 0 -2.24616e-06 0 0
2578.81 0.0189749 0 -2.24614e-06 0 0
2635.47 0.0193915 0 -2.24612e-06 0 0
2692.12 0.0198081 0 -2.24609e-06 0 0
2748.78 0.0202247 0 -2.24607e-06 0 0
2808.67 0.020665 0 -2.24605e-06 0 0
2868.56 0.0211054 0 -2.24602e-06 0 0
2928.45 0.0215457 0 -2.246e-06 0 0
2988.35 0.021986 0 -2.24597e-06 0 0
3048.24 0.0224263 0 -2.24595e-06 0 0
3108.13 0.0228666 0 -2.24593e-06 0 0
3168.03 0.0233069 0 -2.2459e-06 0 0
3227.92 0.0237471 0 -2.24588e-06 0 0
3287.81 0.0241874 0 -2.24585e-06 0 0
3347.7 0.0246276 0 -2.24583e-06 0 0
3407.6 0.0250678 0 -2.24581e-06 0 0
3467.49 0.0255081 0 -2.24578e-06 0 0
3527.38 0.0259483 0 -2.24576e-06 0 0
3587.28 0.0263884 0 -2.24573e-06 0 0
3647.17 0.0268286 0 -2.24571e-06 0 0
3707.06 0.0272688 0 -2.24569e-06 0 0
3766.95 0.0277089 0 -2.24566e-06 0 0
3826.85 0.028149 0 -2.24564e-06 0 0
3886.74 0.0285891 0 -2.24561e-06 0 0
3946.63 0.0290293 0 -2.24559e-06 0 0
4006.52 0.0294693 0 -2.24556e-06 0 0
4066.42 0.0299094 0 -2.24554e-06 0 0
4126.31 0.0303495 0 -2.24552e-06 0 0
4186.2 0.0307895 0 -2.24549e-06 0 0
4246.1 0.0312296 0 -2.24547e-06 0 0
4305.99 0.0316696 0 -2.24544e-06 0 0
4365.88 0.0321096 0 -2.24542e-06 0 0
4425.77 0.0325496 0 -2.2454e-06 0 0
4485.67 0.0329896 0 -2.24537e-06 0 0
4545.56 0.0334295 0 -2.24535e-06 0 0
4605.45 0.0338695 0 -2.24532e-06 0 0
4665.35 0.0343094 0 -2.2453e-06 0 0
4725.24 0.0347494 0 -2.24527e-06 0 0
4785.13 0.0351893 0 -2.24525e-06 0 0
4845.02 0.0356292 0 -2.24523e-06 0 0
4904.92 0.0360691 0 -2.2452e-06 0 0
4964.81 0.0365089 0 -2.24518e-06 0 0
5024.7 0.0369488 0 -2.24515e-06 0 0
5084.6 0.0373886 0 -2.24513e-06 0 0
5144.49 0.0378285 0 -2.2451e-06 0 0
5204.38 0.0382683 0 -2.24508e-06 0 0
5264.27 0.0387081 0 -2.24506e-06 0 0
5324.17 0.0391479 0 -2.24503e-06 0 0
5384.06 0.0395877 0 -2.24501e-06 0 0
5443.95 0.0400274 0 -2.24498e-06 0 0
5503.84 0.0404672 0 -2.24496e-06 0 0
5563.74 0.0409069 0 -2.24493e-06 0 0
5623.63 0.0413467 0 -2.24491e-06 0 0
5683.52 0.0417864 0 -2.24488e-06 0 0
5743.42 0.0422261 0 -2.24486e-06 0 0
5803.31 0.0426658 0 -2.24484e-06 0 0
5863.2 0.0431054 0 -2.24481e-06 0 0
5923.09 0.0435451 0 -2.24479e-06 0 0
5982.99 0.0439847 0 -2.24476e-06 0 0
6042.88 0.0444244 0 -2.24474e-06 0 0
6102.77 0.044864 0 -2.24471e-06 0 0
6162.67 0.0453036 0 -2.24469e-06 0 0
6222.56 0.0457432 0 -2.24466e-06 0 0
6282.45 0.0461828 0 -2.24464e-06 0 0
6342.34 0.0466223 0 -2.24462e-06 0 0
6402.24 0.0470619 0 -2.24459e-06 0 0
6462.13 0.0475014 0 -2.24457e-06 0 0
6522.02 0.0479409 0 -2.24454e-06 0 0
6581.92 0.0483804 0 -2.24452e-06 0 0
6641.81 0.0488199 0 -2.24449e-06 0 0
6701.7 0.0492594 0 -2.24447e-06 0 0
6761.59 0.0496989 0 -2.24444e-06 0 0
6821.49 0.0501383 0 -2.24442e-06 0 0
6881.38 0.0505778 0 -2.24439e-06 0 0
6941.27 0.0510172 0 -2.24437e-06 0 0
7001.16 0.0514566 0 -2.24435e-06 0 0
7061.06 0.051896 0 -2.24432e-06 0 0
7120.95 0.0523354 0 -2.2443e-06 0 0
7180.84 0.0527748 0 -2.24427e-06 0 0
7240.74 0.0532142 0 -2.24425e-06 0 0
7300.63 0.0536535 0 -2.24422e-06 0 0
7360.52 0.0540928 0 -2.2442e-06 0 0
7420.41 0.0545322 0 -2.24417e-06 0 0
7480.31 0.0549715 0 -2.24415e-06 0 0
7540.2 0.0554108 0 -2.24412e-06 0 0
7600.09 0.0558501 0 -2.2441e-06 0 0
7659.99 0.0562893 0 -2.24407e-06 0 0
7719.88 0.0567286 0 -2.24405e-06 0 0
7779.77 0.0571678 0 -2.24402e-06 0 0
7839.66 0.057607 0 -2.244e-06 0 0
7899.56 0.0580463 0 -2.24398e-06 0 0
7959.45 0.0584855 0 -2.24395e-06 0 0
8019.34 0.0589246 0 -2.24393e-06 0 0
8079.24 0.0593638 0 -2.2439e-06 0 0
8139.13 0.059803 0 -2.24388e-06 0 0
8199.02 0.0602421 0 -2.24385e-06 0 0
8258.91 0.0606813 0 -2.24383e-06 0 0
8318.81 0.0611204 0 -2.2438e-06 0 0
8378.7 0.0615595 0 -2.24378e-06 0 0
8438.59 0.0619986 0 -2.24375e-06 0 0
8498.48 0.0624377 0 -2.24373e-06 0 0
8558.38 0.0628767 0 -2.2437e-06 0 0
8618.27 0.0633158 0 -2.24368e-06 0 0
8678.16 0.0637548 0 -2.24365e-06 0 0
8738.06 0.0641938 0 -2.24363e-06 0 0
8797.95 0.0646329 0 -2.2436e-06 0 0
8857.84 0.0650719 0 -2.24358e-06 0 0
8917.73 0.0655108 0 -2.24355e-06 0 0
8977.63 0.0659498 0 -2.24353e-06 0 0
9037.52 0.0663888 0 -2.2435e-06 0 0
9097.41 0.0668277 0 -2.24348e-06 0 0
9157.31 0.0672666 0 -2.24345e-06 0 0
9217.2 0.0677056 0 -2.24343e-06 0 0
9277.09 0.0681445 0 -2.2434e-06 0 0
9336.98 0.0685834 0 -2.24338e-06 0 0
9396.88 0.0690222 0 -2.24335e-06 0 0
9456.77 0.0694611 0 -2.24333e-06 0 0
9516.66 0.0699 0 -2.2433e-06 0 0
9576.56 0.0703388 0 -2.24328e-06 0 0
9636.45 0.0707776 0 -2.24325e-06 0 0
9696.34 0.0712164 0 -2.24323e-06 0 0
9756.23 0.0716552 0 -2.2432e-06 0 0
9816.13 0.072094 0 -2.24318e-06 0 0
9876.02 0.0725328 0 -2.24315e-06 0 0
9935.91 0.0729715 0 -2.24313e-06 0 0
9995.8 0.0734103 0 -2.2431e-06 0 0
10055.7 0.073849 0 -2.24308e-06 0 0
10115.6 0.0742877 0 -2.24305e-06 0 0
10175.5 0.0747264 0 -2.24303e-06 0 0
10235.4 0.0751651 0 -2.243e-06 0 0
10295.3 0.0756038 0 -2.24298e-06 0 0
10355.2 0.0760424 0 -2.24295e-06 0 0
10415.1 0.0764811 0 -2.24293e-06 0 0
10474.9 0.0769197 0 -2.2429e-06 0 0
10534.8 0.0773583 0 -2.24288e-06 0 0
10594.7 0.077797 0 -2.24285e-06 0 0
10654.6 0.0782356 0 -2.24283e-06 0 0
10714.5 0.0786741 0 -2.2428e-06 0 0
10774.4 0.0791127 0 -2.24278e-06 0 0
10834.3 0.0795513 0 -2.24275e-06 0 0
10894.2 0.0799898 0 -2.24273e-06 0 0
10954.1 0.0804283 0 -2.2427e-06 0 0
11014 0.0808668 0 -2.24268e-06 0 0
11073.9 0.0813053 0 -2.24265e-06 0 0
11133.8 0.0817438 0 -2.24263e-06 0 0
11193.7 0.0821823 0 -2.2426e-06 0 0
11253.6 0.0826208 0 -2.24258e-06 0 0
11313.4 0.0830592 0 -2.24255e-06 0 0
11373.3 0.0834976 0 -2.24253e-06 0 0
11433.2 0.0839361 0 -2.2425e-06 0 0
11493.1 0.0843745 0 -2.24248e-06 0 0
11553 0.0848128 0 -2.24245e-06 0 0
11612.9 0.0852512 0 -2.24243e-06 0 0
11672.8 0.0856896 0 -2.2424e-06 0 0
11732.7 0.0861279 0 -2.24238e-06 0 0
11792.6 0.0865663 0 -2.24235e-06 0 0
11852.5 0.0870046 0 -2.24233e-06 0 0
11912.4 0.0874429 0 -2.2423e-06 0 0
11972.3 0.0878812 0 -2.24227e-06 0 0
12032.2 0.0883195 0 -2.24225e-06 0 0
12092.1 0.0887578 0 -2.24222e-06 0 0
12151.9 0.089196 0 -2.2422e-06 0 0
12211.8 0.0896343 0 -2.24217e-06 0 0
12271.7 0.0900725 0 -2.24215e-06 0 0
12331.6 0.0905107 0 -2.24212e-06 0 0
12391.5 0.0909489 0 -2.2421e-06 0 0
12451.4 0.0913871 0 -2.24207e-06 0 0
12511.3 0.0918253 0 -2.24205e-06 0 0
12571.2 0.0922635 0 -2.24202e-06 0 0
12631.1 0.0927016 0 -2.242e-06 0 0
12691 0.0931397 0 -2.24197e-06 0 0
12750.9 0.0935779 0 -2.24194e-06 0 0
12810.8 0.094016 0 -2.24192e-06 0 0
12870.7 0.0944541 0 -2.24189e-06 0 0
12930.6 0.0948921 0 -2.24187e-06 0 0
12990.4 0.0953302 0 -2.24184e-06 0 0
13050.3 0.0957683 0 -2.24182e-06 0 0
13110.2 0.0962063 0 -2.24179e-06 0 0
13170.1 0.0966443 0 -2.24177e-06 0 0
13230 0.0970823 0 -2.24174e-06 0 0
13289.9 0.0975204 0 -2.24172e-06 0 0
13349.8 0.0979583 0 -2.24169e-06 0 0
13409.7 0.0983963 0 -2.24167e-06 0 0
13469.6 0.0988343 0 -2.24164e-06 0 0
13529.5 0.0992722 0 -2.24161e-06 0 0
13589.4 0.0997102 0 -2.24159e-06 0 0
13649.3 0.100148 0 -2.24156e-06 0 0
13709.2 0.100586 0 -2.24154e-06 0 0
13769.1 0.101024 0 -2.24151e-06 0 0
13828.9 0.101462 0 -2.24149e-06 0 0
13888.8 0.1019 0 -2.24146e-06 0 0
13948.7 0.102337 0 -2.24144e-06 0 0
14008.6 0.102775 0 -2.24141e-06 0 0
14068.5 0.103213 0 -2.24138e-06 0 0
14128.4 0.103651 0 -2.24136e-06 0 0
14188.3 0.104089 0 -2.24133e-06 0 0
14248.2 0.104527 0 -2.24131e-06 0 0
14308.1 0.104964 0 -2.24128e-06 0 0
14368 0.105402 0 -2.24126e-06 0 0
14427.9 0.10584 0 -2.24123e-06 0 0
14487.8 0.106278 0 -2.2412e-06 0 0
14547.7 0.106715 0 -2.24118e-06 0 0
14607.6 0.107153 0 -2.24115e-06 0 0
14667.4 0.107591 0 -2.24113e-06 0 0
14727.3 0.108028 0 -2.2411e-06 0 0
14787.2 0.108466 0 -2.24108e-06 0 0
14847.1 0.108904 0 -2.24105e-06 0 0
14907 0.109341 0 -2.24103e-06 0 0
14966.9 0.109779 0 -2.241e-06 0 0
15026.8 0.110217 0 -2.24097e-06 0 0
15086.7 0.110654 0 -2.24095e-06 0 0
15146.6 0.111092 0 -2.24092e-06 0 0
15206.5 0.111529 0 -2.2409e-06 0 0
15266.4 0.111967 0 -2.24087e-06 0 0
15326.3 0.112404 0 -2.24085e-06 0 0
15386.2 0.112842 0 -2.24082e-06 0 0
15446 0.113279 0 -2.24079e-06 0 0
15505.9 0.113717 0 -2.24077e-06 0 0
15565.8 0.114154 0 -2.24074e-06 0 0
15625.7 0.114592 0 -2.24072e-06 0 0
15685.6 0.115029 0 -2.24069e-06 0 0
15745.5 0.115467 0 -2.24066e-06 0 0
15805.4 0.115904 0 -2.24064e-06 0 0
15865.3 0.116342 0 -2.24061e-06 0 0
15925.2 0.116779 0 -2.24059e-06 0 0
15985.1 0.117216 0 -2.24056e-06 0 0
16045 0.117654 0 -2.24054e-06 0 0
16104.9 0.118091 0 -2.24051e-06 0 0
16164.8 0.118529 0 -2.24048e-06 0 0
16224.7 0.118966 0 -2.24046e-06 0 0
16284.5 0.119403 0 -2.24043e-06 0 0
16344.4 0.11984 0 -2.24041e-06 0 0
16404.3 0.120278 0 -2.24038e-06 0 0
16464.2 0.120715 0 -2.24035e-06 0 0
16524.1 0.121152 0 -2.24033e-06 0 0
16584 0.12159 0 -2.2403e-06 0 0
16643.9 0.122027 0 -2.24028e-06 0 0
16703.8 0.122464 0 -2.24025e-06 0 0
16763.7 0.122901 0 -2.24022e-06 0 0
16823.6 0.123338 0 -2.2402e-06 0 0
16883.5 0.123776 0 -2.24017e-06 0 0
16943.4 0.124213 0 -2.24015e-06 0 0
17003.3 0.12465 0 -2.24012e-06 0 0
17063.2 0.125087 0 -2.24009e-06 0 0
17123 0.125524 0 -2.24007e-06 0 0
17182.9 0.125961 0 -2.24004e-06 0 0
17242.8 0.126399 0 -2.24002e-06 0 0
17302.7 0.126836 0 -2.23999e-06 0 0
17362.6 0.127273 0 -2.23996e-06 0 0
17422.5 0.12771 0 -2.23994e-06 0 0
17482.4 0.128147 0 -2.23991e-06 0 0
17542.3 0.128584 0 -2.23989e-06 0 0
17602.2 0.129021 0 -2.23986e-06 0 0
17662.1 0.129458 0 -2.23983e-06 0 0
17722 0.129895 0 -2.23981e-06 0 0
17781.9 0.130332 0 -2.23978e-06 0 0
17841.8 0.130769 0 -2.23976e-06 0 0
17901.7 0.131206 0 -2.23973e-06 0 0
17961.5 0.131643 0 -2.2397e-06 0 0
18021.4 0.13208 0 -2.23968e-06 0 0
18081.3 0.132517 0 -2.23965e-06 0 0
18141.2 0.132954 0 -2.23963e-06 0 0
18201.1 0.13339 0 -2.2396e-06 0 0
18261 0.133827 0 -2.23957e-06 0 0
18320.9 0.134264 0 -2.23955e-06 0 0
18380.8 0.134701 0 -2.23952e-06 0 0
18440.7 0.135138 0 -2.23949e-06 0 0
18500.6 0.135575 0 -2.23947e-06 0 0
18560.5 0.136012 0 -2.23944e-06 0 0
18620.4 0.136448 0 -2.23942e-06 0 0
18680.3 0.136885 0 -2.23939e-06 0 0
18740.2 0.137322 0 -2.23936e-06 0 0
18800 0.137759 0 -2.23934e-06 0 0
18859.9 0.138195 0 -2.23931e-06 0 0
18919.8 0.138632 0 -2.23928e-06 0 0
18979.7 0.139069 0 -2.23926e-06 0 0
19039.6 0.139506 0 -2.23923e-06 0 0
19099.5 0.139942 0 -2.23921e-06 0 0
19159.4 0.140379 0 -2.23918e-06 0 0
19219.3 0.140816 0 -2.23915e-06 0 0
19279.2 0.141252 0 -2.23913e-06 0 0
19339.1 0.141689 0 -2.2391e-06 0 0
19399 0.142125 0 -2.23907e-06 0 0
19458.9 0.142562 0 -2.23905e-06 0 0
19518.8 0.142999 0 -2.23902e-06 0 0
19578.7 0.143435 0 -2.239e-06 0 0
19638.5 0.143872 0 -2.23897e-06 0 0
19698.4 0.144308 0 -2.23894e-06 0 0
19758.3 0.144745 0 -2.23892e-06 0 0
19818.2 0.145181 0 -2.23889e-06 0 0
19878.1 0.145618 0 -2.23886e-06 0 0
19938 0.146054 0 -2.23884e-06 0 0
19997.9 0.146491 0 -2.23881e-06 0 0
20057.8 0.146927 0 -2.23878e-06 0 0
20117.7 0.147364 0 -2.23876e-06 0 0
20177.6 0.1478 0 -2.23873e-06 0 0
20237.5 0.148237 0 -2.23871e-06 0 0
20297.4 0.148673 0 -2.23868e-06 0 0
20357.3 0.14911 0 -2.23865e-06 0 0
20417.2 0.149546 0 -2.23863e-06 0 0
20477 0.149982 0 -2.2386e-06 0 0
20536.9 0.150419 0 -2.23857e-06 0 0
20596.8 0.150855 0 -2.23855e-06 0 0
20656.7 0.151291 0 -2.23852e-06 0 0
20716.6 0.151728 0 -2.23849e-06 0 0
20776.5 0.152164 0 -2.23847e-06 0 0
20836.4 0.1526 0 -2.23844e-06 0 0
20896.3 0.153037 0 -2.23841e-06 0 0
20956.2 0.153473 0 -2.23839e-06 0 0
21016.1 0.153909 0 -2.23836e-06 0 0
21076 0.154345 0 -2.23833e-06 0 0
21135.9 0.154782 0 -2.23831e-06 0 0
21195.8 0.155218 0 -2.23828e-06 0 0
21255.7 0.155654 0 -2.23826e-06 0 0
21315.5 0.15609 0 -2.23823e-06 0 0
21375.4 0.156526 0 -2.2382e-06 0 0
21435.3 0.156963 0 -2.23818e-06 0 0
21495.2 0.157399 0 -2.23815e-06 0 0
21555.1 0.157835 0 -2.23812e-06 0 0
21615 0.158271 0 -2.2381e-06 0 0
21674.9 0.158707 0 -2.23807e-06 0 0
21734.8 0.159143 0 -2.23804e-06 0 0
21794.7 0.159579 0 -2.23802e-06 0 0
21854.6 0.160015 0 -2.23799e-06 0 0
21914.5 0.160451 0 -2.23796e-06 0 0
21974.4 0.160887 0 -2.23794e-06 0 0
22034.3 0.161323 0 -2.23791e-06 0 0
22094.2 0.161759 0 -2.23788e-06 0 0
22154 0.162195 0 -2.23786e-06 0 0
22213.9 0.162631 0 -2.23783e-06 0 0
22273.8 0.163067 0 -2.2378e-06 0 0
22333.7 0.163503 0 -2.23778e-06 0 0
22393.6 0.163939 0 -2.23775e-06 0 0
22453.5 0.164375 0 -2.23772e-06 0 0
22513.4 0.164811 0 -2.2377e-06 0 0
22573.3 0.165247 0 -2.23767e-06 0 0
22633.2 0.165683 0 -2.23764e-06 0 0
22693.1 0.166119 0 -2.23762e-06 0 0
22753 0.166555 0 -2.23759e-06 0 0
22812.9 0.166991 0 -2.23756e-06 0 0
22872.8 0.167426 0 -2.23753e-06 0 0
22932.6 0.167862 0 -2.23751e-06 0 0
22992.5 0.168298 0 -2.23748e-06 0 0
23052.4 0.168734 0 -2.23745e-06 0 0
23112.3 0.16917 0 -2.23743e-06 0 0
23172.2 0.169605 0 -2.2374e-06 0 0
23232.1 0.170041 0 -2.23737e-06 0 0
23292 0.170477 0 -2.23735e-06 0 0
23351.9 0.170913 0 -2.23732e-06 0 0
23411.8 0.171348 0 -2.23729e-06 0 0
23471.7 0.171784 0 -2.23727e-06 0 0
23531.6 0.17222 0 -2.23724e-06 0 0
23591.5 0.172655 0 -2.23721e-06 0 0
23651.4 0.173091 0 -2.23719e-06 0 0
23711.3 0.173527 0 -2.23716e-06 0 0
23771.1 0.173962 0 -2.23713e-06 0 0
23831 0.174398 0 -2.23711e-06 0 0
23890.9 0.174834 0 -2.23708e-06 0 0
23950.8 0.175269 0 -2.23705e-06 0 0
24010.7 0.175705 0 -2.23702e-06 0 0
24070.6 0.17614 0 -2.237e-06 0 0
24130.5 0.176576 0 -2.23697e-06 0 0
24190.4 0.177011 0 -2.23694e-06 0 0
24250.3 0.177447 0 -2.23692e-06 0 0
24310.2 0.177882 0 -2.23689e-06 0 0
24370.1 0.178318 0 -2.23686e-06 0 0
24430 0.178753 0 -2.23684e-06 0 0
24489.9 0.179189 0 -2.23681e-06 0 0
24549.8 0.179624 0 -2.23678e-06 0 0
24609.6 0.18006 0 -2.23675e-06 0 0
24669.5 0.180495 0 -2.23673e-06 0 0
24729.4 0.180931 0 -2.2367e-06 0 0
24789.3 0.181366 0 -2.23667e-06 0 0
24849.2 0.181801 0 -2.23665e-06 0 0
24909.1 0.182237 0 -2.23662e-06 0 0
24969 0.182672 0 -2.23659e-06 0 0
25028.9 0.183108 0 -2.23657e-06 0 0
25088.8 0.183543 0 -2.23654e-06 0 0
25148.7 0.183978 0 -2.23651e-06 0 0
25208.6 0.184414 0 -2.23648e-06 0 0
25268.5 0.184849 0 -2.23646e-06 0 0
25328.4 0.185284 0 -2.23643e-06 0 0
25388.3 0.185719 0 -2.2364e-06 0 0
25448.1 0.186155 0 -2.23638e-06 0 0
25508 0.18659 0 -2.23635e-06 0 0
25567.9 0.187025 0 -2.23632e-06 0 0
25627.8 0.18746 0 -2.23629e-06 0 0
25687.7 0.187895 0 -2.23627e-06 0 0
25747.6 0.188331 0 -2.23624e-06 0 0
25807.5 0.188766 0 -2.23621e-06 0 0
25867.4 0.189201 0 -2.23619e-06 0 0
25927.3 0.189636 0 -2.23616e-06 0 0
25987.2 0.190071 0 -2.23613e-06 0 0
26047.1 0.190506 0 -2.2361e-06 0 0
26107 0.190942 0 -2.23608e-06 0 0
26166.9 0.191377 0 -2.23605e-06 0 0
26226.8 0.191812 0 -2.23602e-06 0 0
26286.6 0.192247 0 -2.23599e-06 0 0
26346.5 0.192682 0 -2.23597e-06 0 0
26406.4 0.193117 0 -2.23594e-06 0 0
26466.3 0.193552 0 -2.23591e-06 0 0
26526.2 0.193987 0 -2.23589e-06 0 0
26586.1 0.194422 0 -2.23586e-06 0 0
26646 0.194857 0 -2.23583e-06 0 0
26705.9 0.195292 0 -2.2358e-06 0 0
26765.8 0.195727 0 -2.23578e-06 0 0
26825.7 0.196162 0 -2.23575e-06 0 0
26885.6 0.196597 0 -2.23572e-06 0 0
26945.5 0.197032 0 -2.23569e-06 0 0
27005.4 0.197466 0 -2.23567e-06 0 0
27065.3 0.197901 0 -2.23564e-06 0 0
27125.1 0.198336 0 -2.23561e-06 0 0
27185 0.198771 0 -2.23559e-06 0 0
27244.9 0.199206 0 -2.23556e-06 0 0
27304.8 0.199641 0 -2.23553e-06 0 0
27364.7 0.200076 0 -2.2355e-06 0 0
27424.6 0.20051 0 -2.23548e-06 0 0
27484.5 0.200945 0 -2.23545e-06 0 0
27544.4 0.20138 0 -2.23542e-06 0 0
27604.3 0.201815 0 -2.23539e-06 0 0
27664.2 0.202249 0 -2.23537e-06 0 0
27724.1 0.202684 0 -2.23534e-06 0 0
27784 0.203119 0 -2.23531e-06 0 0
27843.9 0.203554 0 -2.23528e-06 0 0
27903.8 0.203988 0 -2.23526e-06 0 0
27963.6 0.204423 0 -2.23523e-06 0 0
28023.5 0.204858 0 -2.2352e-06 0 0
28083.4 0.205292 0 -2.23517e-06 0 0
28143.3 0.205727 0 -2.23515e-06 0 0
28203.2 0.206162 0 -2.23512e-06 0 0
28263.1 0.206596 0 -2.23509e-06 0 0
28323 0.207031 0 -2.23506e-06 0 0
28382.9 0.207465 0 -2.23504e-06 0 0
28442.8 0.2079 0 -2.23501e-06 0 0
28502.7 0.208335 0 -2.23498e-06 0 0
28562.6 0.208769 0 -2.23495e-06 0 0
28622.5 0.209204 0 -2.23493e-06 0 0
28682.4 0.209638 0 -2.2349e-06 0 0
28742.3 0.210073 0 -2.23487e-06 0 0
28802.1 0.210507 0 -2.23484e-06 0 0
28862 0.210942 0 -2.23482e-06 0 0
28921.9 0.211376 0 -2.23479e-06 0 0
28981.8 0.211811 0 -2.23476e-06 0 0
29041.7 0.212245 0 -2.23473e-06 0 0
29101.6 0.212679 0 -2.23471e-06 0 0
29161.5 0.213114 0 -2.23468e-06 0 0
29221.4 0.213548 0 -2.23465e-06 0 0
29281.3 0.213983 0 -2.23462e-06 0 0
29341.2 0.214417 0 -2.23459e-06 0 0
29401.1 0.214851 0 -2.23457e-06 0 0
