#Time TotalMass(kg) flux(x0) flux(x1) flux(y0) flux(y1)
0.1 0.00143517 -0.00500001 5.44385e-111 0 0
0.114142 0.00163813 -0.00500001 6.34052e-111 0 0
0.131112 0.00188168 -0.00500001 7.63642e-111 0 0
0.151476 0.00217394 -0.00500001 9.58912e-111 0 0
0.175912 0.00252464 -0.00500001 1.26902e-110 0 0
0.205236 0.00294549 -0.00500001 1.79553e-110 0 0
0.240423 0.00345049 -0.00500001 2.77033e-110 0 0
0.282646 0.00405647 -0.00500001 4.79491e-110 0 0
0.333312 0.00478361 -0.00500001 9.71906e-110 0 0
0.394106 0.00565611 -0.00500001 2.47749e-109 0 0
0.467052 0.00670301 -0.00500001 9.0354e-109 0 0
0.554582 0.00795922 -0.00500001 5.79983e-108 0 0
0.654571 0.00939423 -0.00500001 5.57221e-107 0 0
0.75456 0.0108293 -0.00500001 3.58156e-106 0 0
0.854549 0.0122643 -0.00500001 1.80592e-105 0 0
0.954538 0.0136993 -0.00500001 7.6754e-105 0 0
1.05453 0.0151343 -0.00500001 2.86406e-104 0 0
1.15452 0.0165693 -0.00500001 9.63182e-104 0 0
1.25451 0.0180043 -0.00500001 2.97281e-103 0 0
1.35449 0.0194394 -0.00500001 8.53362e-103 0 0
1.45448 0.0208744 -0.00500001 2.30147e-102 0 0
1.55447 0.0223094 -0.00500001 5.87804e-102 0 0
1.65446 0.0237444 -0.00500001 1.43084e-101 0 0
1.75445 0.0251794 -0.00500001 3.33693e-101 0 0
1.85444 0.0266144 -0.00500001 7.48854e-101 0 0
1.95443 0.0280494 -0.00500001 1.62306e-100 0 0
2.05442 0.0294845 -0.00500001 3.40814e-100 0 0
2.15441 0.0309195 -0.00500001 6.95219e-100 0 0
2.2544 0.0323545 -0.00500001 1.38091e-99 0 0
2.35439 0.0337895 -0.00500001 2.67635e-99 0 0
2.45437 0.0352245 -0.00500001 5.0704e-99 0 0
2.55436 0.0366595 -0.00500001 9.40503e-99 0 0
2.65435 0.0380946 -0.00500001 1.71049e-98 0 0
2.75434 0.0395296 -0.00500001 3.05411e-98 0 0
2.85433 0.0409646 -0.00500001 5.35987e-98 0 0
2.95432 0.0423996 -0.00500001 9.25517e-98 0 0
3.05431 0.0438346 -0.00500001 1.57394e-97 0 0
3.1543 0.0452696 -0.00500001 2.63842e-97 0 0
3.25429 0.0467047 -0.00500001 4.36308e-97 0 0
3.35428 0.0481397 -0.00500001 7.12283e-97 0 0
3.45427 0.0495747 -0.00500001 1.14872e-96 0 0
3.55425 0.0510097 -0.00500001 1.83121e-96 0 0
3.65424 0.0524447 -0.00500001 2.88722e-96 0 0
3.75423 0.0538797 -0.00500001 4.50467e-96 0 0
3.85422 0.0553147 -0.00500001 6.95826e-96 0 0
3.95421 0.0567498 -0.00500001 1.06461e-95 0 0
4.0542 0.0581848 -0.00500001 1.61404e-95 0 0
4.15419 0.0596198 -0.00500001 2.42575e-95 0 0
4.25418 0.0610548 -0.00500001 3.6153e-95 0 0
4.35417 0.0624898 -0.00500001 5.34516e-95 0 0
4.45416 0.0639248 -0.00500001 7.84213e-95 0 0
4.55415 0.0653599 -0.00500001 1.14208e-94 0 0
4.65413 0.0667949 -0.00500001 1.65149e-94 0 0
4.75412 0.0682299 -0.00500001 2.37184e-94 0 0
4.85411 0.0696649 -0.00500001 3.38405e-94 0 0
4.9541 0.0710999 -0.00500001 4.79772e-94 0 0
5.05409 0.0725349 -0.00500001 6.76047e-94 0 0
5.15408 0.0739699 -0.00500001 9.47015e-94 0 0
5.25407 0.075405 -0.00500001 1.31906e-93 0 0
5.35406 0.07684 -0.00500001 1.82717e-93 0 0
5.45405 0.078275 -0.00500001 2.51759e-93 0 0
5.55404 0.07971 -0.00500001 3.45109e-93 0 0
5.65402 0.081145 -0.00500001 4.70721e-93 0 0
5.75401 0.08258 -0.00500001 6.38964e-93 0 0
5.854 0.084015 -0.00500001 8.63296e-93 0 0
5.95399 0.0854501 -0.00500001 1.16112e-92 0 0
6.05398 0.0868851 -0.00500001 1.55483e-92 0 0
6.15397 0.0883201 -0.00500001 2.07318e-92 0 0
6.25396 0.0897551 -0.00500001 2.75293e-92 0 0
6.35395 0.0911901 -0.00500001 3.64089e-92 0 0
6.45394 0.0926251 -0.00500001 4.79648e-92 0 0
6.55393 0.0940601 -0.00500001 6.2949e-92 0 0
6.65392 0.0954952 -0.00500001 8.23096e-92 0 0
6.7539 0.0969302 -0.00500001 1.07239e-91 0 0
6.85389 0.0983652 -0.00500001 1.39231e-91 0 0
6.95388 0.0998002 -0.00500001 1.80153e-91 0 0
7.05387 0.101235 -0.00500001 2.3233e-91 0 0
7.15386 0.10267 -0.00500001 2.98654e-91 0 0
7.25385 0.104105 -0.00500001 3.82704e-91 0 0
7.35384 0.10554 -0.00500001 4.88905e-91 0 0
7.45383 0.106975 -0.00500001 6.2271e-91 0 0
7.55382 0.10841 -0.00500001 7.90821e-91 0 0
7.65381 0.109845 -0.00500001 1.00146e-90 0 0
7.7538 0.11128 -0.00500001 1.26468e-90 0 0
7.85378 0.112715 -0.00500001 1.59274e-90 0 0
7.95377 0.11415 -0.00500001 2.0006e-90 0 0
8.05376 0.115585 -0.00500001 2.50638e-90 0 0
8.15375 0.11702 -0.00500001 3.13209e-90 0 0
8.25374 0.118455 -0.00500001 3.90432e-90 0 0
8.35373 0.11989 -0.00500001 4.85517e-90 0 0
8.45372 0.121325 -0.00500001 6.02329e-90 0 0
8.55371 0.12276 -0.00500001 7.45516e-90 0 0
8.6537 0.124195 -0.00500001 9.20652e-90 0 0
8.75369 0.12563 -0.00500001 1.13441e-89 0 0
8.85368 0.127065 -0.00500001 1.39476e-89 0 0
8.95366 0.1285 -0.00500001 1.71121e-89 0 0
9.05365 0.129935 -0.00500001 2.0951e-89 0 0
9.15364 0.13137 -0.00500001 2.55987e-89 0 0
9.25363 0.132805 -0.00500001 3.12149e-89 0 0
9.35362 0.134241 -0.00500001 3.79886e-89 0 0
9.45361 0.135676 -0.00500001 4.61435e-89 0 0
9.5536 0.137111 -0.00500001 5.59434e-89 0 0
9.65359 0.138546 -0.00500001 6.76993e-89 0 0
9.75358 0.139981 -0.00500001 8.17772e-89 0 0
9.85357 0.141416 -0.00500001 9.8607e-89 0 0
9.95355 0.142851 -0.00500001 1.18693e-88 0 0
10.0535 0.144286 -0.00500001 1.42626e-88 0 0
10.1535 0.145721 -0.00500001 1.71096e-88 0 0
10.2535 0.147156 -0.00500001 2.04911e-88 0 0
10.3535 0.148591 -0.00500001 2.45012e-88 0 0
10.4535 0.150026 -0.00500001 2.92495e-88 0 0
10.5535 0.151461 -0.00500001 3.48634e-88 0 0
10.6535 0.152896 -0.00500001 4.14909e-88 0 0
10.7535 0.154331 -0.00500001 4.93039e-88 0 0
10.8535 0.155766 -0.00500001 5.85013e-88 0 0
10.9534 0.157201 -0.00500001 6.93133e-88 0 0
11.0534 0.158636 -0.00500001 8.2006e-88 0 0
11.1534 0.160071 -0.00500001 9.68862e-88 0 0
11.2534 0.161506 -0.00500001 1.14308e-87 0 0
11.3534 0.162941 -0.00500001 1.34679e-87 0 0
11.4534 0.164376 -0.00500001 1.58468e-87 0 0
11.5534 0.165811 -0.00500001 1.86213e-87 0 0
11.6534 0.167246 -0.00500001 2.18532e-87 0 0
11.7534 0.168681 -0.00500001 2.56133e-87 0 0
11.8533 0.170116 -0.00500001 2.99828e-87 0 0
11.9533 0.171551 -0.00500001 3.50542e-87 0 0
12.0533 0.172986 -0.00500001 4.09336e-87 0 0
12.1533 0.174421 -0.00500001 4.77419e-87 0 0
12.2533 0.175856 -0.00500001 5.5617e-87 0 0
12.3533 0.177291 -0.00500001 6.47159e-87 0 0
12.4533 0.178726 -0.00500001 7.52172e-87 0 0
12.5533 0.180161 -0.00500001 8.73241e-87 0 0
12.6533 0.181596 -0.00500001 1.01267e-86 0 0
12.7532 0.183031 -0.00500001 1.17309e-86 0 0
12.8532 0.184466 -0.00500001 1.35744e-86 0 0
12.9532 0.185901 -0.00500001 1.56911e-86 0 0
13.0532 0.187336 -0.00500001 1.81188e-86 0 0
13.1532 0.188771 -0.00500001 2.09006e-86 0 0
13.2532 0.190206 -0.00500001 2.4085e-86 0 0
13.3532 0.191641 -0.00500001 2.77268e-86 0 0
13.4532 0.193076 -0.00500001 3.18877e-86 0 0
13.5532 0.194511 -0.00500001 3.66373e-86 0 0
13.6532 0.195946 -0.00500001 4.20539e-86 0 0
13.7531 0.197381 -0.00500001 4.82256e-86 0 0
13.8531 0.198816 -0.00500001 5.52515e-86 0 0
13.9531 0.200251 -0.00500001 6.32426e-86 0 0
14.0531 0.201686 -0.00500001 7.23237e-86 0 0
14.1531 0.203121 -0.00500001 8.26346e-86 0 0
14.2531 0.204556 -0.00500001 9.43319e-86 0 0
14.3531 0.205991 -0.00500001 1.07591e-85 0 0
14.4531 0.207426 -0.00500001 1.22608e-85 0 0
14.5531 0.208861 -0.00500001 1.39603e-85 0 0
14.653 0.210296 -0.00500001 1.58819e-85 0 0
14.753 0.211731 -0.00500001 1.80531e-85 0 0
14.853 0.213166 -0.00500001 2.05044e-85 0 0
14.953 0.214601 -0.00500001 2.32697e-85 0 0
15.053 0.216036 -0.00500001 2.63868e-85 0 0
15.153 0.217471 -0.00500001 2.9898e-85 0 0
15.253 0.218906 -0.00500001 3.385e-85 0 0
15.353 0.220341 -0.00500001 3.82951e-85 0 0
15.453 0.221776 -0.00500001 4.32909e-85 0 0
15.5529 0.223211 -0.00500001 4.89019e-85 0 0
15.6529 0.224646 -0.00500001 5.51993e-85 0 0
15.7529 0.226081 -0.00500001 6.2262e-85 0 0
15.8529 0.227516 -0.00500001 7.01777e-85 0 0
15.9529 0.228951 -0.00500001 7.90434e-85 0 0
16.0529 0.230386 -0.00500001 8.89663e-85 0 0
16.1529 0.231821 -0.00500001 1.00065e-84 0 0
16.2529 0.233256 -0.00500001 1.12471e-84 0 0
16.3529 0.234691 -0.00500001 1.26329e-84 0 0
16.4528 0.236126 -0.00500001 1.41799e-84 0 0
16.5528 0.237561 -0.00500001 1.59058e-84 0 0
16.6528 0.238996 -0.00500001 1.783e-84 0 0
16.7528 0.240431 -0.00500001 1.9974e-84 0 0
16.8528 0.241866 -0.00500001 2.23614e-84 0 0
16.9528 0.243301 -0.00500001 2.50184e-84 0 0
17.0528 0.244736 -0.00500001 2.79734e-84 0 0
17.1528 0.246171 -0.00500001 3.1258e-84 0 0
17.2528 0.247606 -0.00500001 3.49068e-84 0 0
17.3527 0.249041 -0.00500001 3.8958e-84 0 0
17.4527 0.250476 -0.00500001 4.34531e-84 0 0
17.5527 0.251911 -0.00500001 4.84382e-84 0 0
17.6527 0.253346 -0.00500001 5.39634e-84 0 0
17.7527 0.254781 -0.00500001 6.00839e-84 0 0
17.8527 0.256216 -0.00500001 6.68601e-84 0 0
17.9527 0.257651 -0.00500001 7.43582e-84 0 0
18.0527 0.259086 -0.00500001 8.26507e-84 0 0
18.1527 0.260521 -0.00500001 9.18167e-84 0 0
18.2526 0.261956 -0.00500001 1.01943e-83 0 0
18.3526 0.263391 -0.00500001 1.13125e-83 0 0
18.4526 0.264826 -0.00500001 1.25465e-83 0 0
18.5526 0.266261 -0.00500001 1.39077e-83 0 0
18.6526 0.267696 -0.00500001 1.54084e-83 0 0
18.7526 0.269131 -0.00500001 1.70621e-83 0 0
18.8526 0.270566 -0.00500001 1.88836e-83 0 0
18.9526 0.272001 -0.00500001 2.08887e-83 0 0
19.0526 0.273436 -0.00500001 2.30951e-83 0 0
19.1525 0.274871 -0.00500001 2.55217e-83 0 0
19.2525 0.276306 -0.00500001 2.81892e-83 0 0
19.3525 0.277741 -0.00500001 3.11202e-83 0 0
19.4525 0.279176 -0.00500001 3.43391e-83 0 0
19.5525 0.280612 -0.00500001 3.78728e-83 0 0
19.6525 0.282047 -0.00500001 4.17501e-83 0 0
19.7525 0.283482 -0.00500001 4.60026e-83 0 0
19.8525 0.284917 -0.00500001 5.06644e-83 0 0
19.9525 0.286352 -0.00500001 5.57728e-83 0 0
20.0525 0.287787 -0.00500001 6.1368e-83 0 0
20.1524 0.289222 -0.00500001 6.74938e-83 0 0
20.2524 0.290657 -0.00500001 7.41975e-83 0 0
20.3524 0.292092 -0.00500001 8.15307e-83 0 0
20.4524 0.293527 -0.00500001 8.95489e-83 0 0
20.5524 0.294962 -0.00500001 9.83126e-83 0 0
20.6524 0.296397 -0.00500001 1.07887e-82 0 0
20.7524 0.297832 -0.00500001 1.18343e-82 0 0
20.8524 0.299267 -0.00500001 1.29757e-82 0 0
20.9524 0.300702 -0.00500001 1.42211e-82 0 0
21.0523 0.302137 -0.00500001 1.55796e-82 0 0
21.1523 0.303572 -0.00500001 1.70608e-82 0 0
21.2523 0.305007 -0.00500001 1.86751e-82 0 0
21.3523 0.306442 -0.00500001 2.04338e-82 0 0
21.4523 0.307877 -0.00500001 2.23492e-82 0 0
21.5523 0.309312 -0.00500001 2.44343e-82 0 0
21.6523 0.310747 -0.00500001 2.67033e-82 0 0
21.7523 0.312182 -0.00500001 2.91715e-82 0 0
21.8523 0.313617 -0.00500001 3.18555e-82 0 0
21.9522 0.315052 -0.00500001 3.4773e-82 0 0
22.0522 0.316487 -0.00500001 3.79432e-82 0 0
22.1522 0.317922 -0.00500001 4.13867e-82 0 0
22.2522 0.319357 -0.00500001 4.51257e-82 0 0
22.3522 0.320792 -0.00500001 4.91842e-82 0 0
22.4522 0.322227 -0.00500001 5.35878e-82 0 0
22.5522 0.323662 -0.00500001 5.83643e-82 0 0
22.6522 0.325097 -0.00500001 6.35435e-82 0 0
22.7522 0.326532 -0.00500001 6.91574e-82 0 0
22.8521 0.327967 -0.00500001 7.52403e-82 0 0
22.9521 0.329402 -0.00500001 8.18293e-82 0 0
23.0521 0.330837 -0.00500001 8.8964e-82 0 0
23.1521 0.332272 -0.00500001 9.66871e-82 0 0
23.2521 0.333707 -0.00500001 1.05044e-81 0 0
23.3521 0.335142 -0.00500001 1.14085e-81 0 0
23.4521 0.336577 -0.00500001 1.23861e-81 0 0
23.5521 0.338012 -0.00500001 1.3443e-81 0 0
23.6521 0.339447 -0.00500001 1.45852e-81 0 0
23.752 0.340882 -0.00500001 1.58193e-81 0 0
23.852 0.342317 -0.00500001 1.7152e-81 0 0
23.952 0.343752 -0.00500001 1.8591e-81 0 0
24.052 0.345187 -0.00500001 2.01442e-81 0 0
24.152 0.346622 -0.00500001 2.18202e-81 0 0
24.252 0.348057 -0.00500001 2.36281e-81 0 0
24.352 0.349492 -0.00500001 2.55776e-81 0 0
24.452 0.350927 -0.00500001 2.76794e-81 0 0
24.552 0.352362 -0.00500001 2.99445e-81 0 0
24.6519 0.353797 -0.00500001 3.23851e-81 0 0
24.7519 0.355232 -0.00500001 3.50138e-81 0 0
24.8519 0.356667 -0.00500001 3.78444e-81 0 0
24.9519 0.358102 -0.00500001 4.08915e-81 0 0
25.0519 0.359537 -0.00500001 4.41707e-81 0 0
25.1519 0.360972 -0.00500001 4.76988e-81 0 0
25.2519 0.362407 -0.00500001 5.14935e-81 0 0
25.3519 0.363842 -0.00500001 5.55739e-81 0 0
25.4519 0.365277 -0.00500001 5.99601e-81 0 0
25.5519 0.366712 -0.00500001 6.4674e-81 0 0
25.6518 0.368147 -0.00500001 6.97385e-81 0 0
25.7518 0.369582 -0.00500001 7.51784e-81 0 0
25.8518 0.371017 -0.00500001 8.10197e-81 0 0
25.9518 0.372452 -0.00500001 8.72906e-81 0 0
26.0518 0.373887 -0.00500001 9.40207e-81 0 0
26.1518 0.375322 -0.00500001 1.01242e-80 0 0
26.2518 0.376757 -0.00500001 1.08988e-80 0 0
26.3518 0.378192 -0.00500001 1.17295e-80 0 0
26.4518 0.379627 -0.00500001 1.26201e-80 0 0
26.5517 0.381062 -0.00500001 1.35747e-80 0 0
26.6517 0.382497 -0.00500001 1.45976e-80 0 0
26.7517 0.383932 -0.00500001 1.56935e-80 0 0
26.8517 0.385367 -0.00500001 1.68673e-80 0 0
26.9517 0.386802 -0.00500001 1.81241e-80 0 0
27.0517 0.388237 -0.00500001 1.94696e-80 0 0
27.1517 0.389672 -0.00500001 2.09096e-80 0 0
27.2517 0.391107 -0.00500001 2.24505e-80 0 0
27.3517 0.392542 -0.00500001 2.40988e-80 0 0
27.4516 0.393977 -0.00500001 2.58616e-80 0 0
27.5516 0.395412 -0.00500001 2.77465e-80 0 0
27.6516 0.396847 -0.00500001 2.97614e-80 0 0
27.7516 0.398282 -0.00500001 3.19148e-80 0 0
27.8516 0.399717 -0.00500001 3.42157e-80 0 0
27.9516 0.401152 -0.00500001 3.66737e-80 0 0
28.0516 0.402587 -0.00500001 3.92987e-80 0 0
28.1516 0.404022 -0.00500001 4.21017e-80 0 0
28.2516 0.405457 -0.00500001 4.50938e-80 0 0
28.3515 0.406892 -0.00500001 4.82873e-80 0 0
28.4515 0.408327 -0.00500001 5.16948e-80 0 0
28.5515 0.409762 -0.00500001 5.533e-80 0 0
28.6515 0.411197 -0.00500001 5.92072e-80 0 0
28.7515 0.412632 -0.00500001 6.33415e-80 0 0
28.8515 0.414067 -0.00500001 6.77492e-80 0 0
28.9515 0.415502 -0.00500001 7.24472e-80 0 0
29.0515 0.416937 -0.00500001 7.74536e-80 0 0
29.1515 0.418372 -0.00500001 8.27876e-80 0 0
29.2514 0.419807 -0.00500001 8.84693e-80 0 0
29.3514 0.421242 -0.00500001 9.45202e-80 0 0
29.4514 0.422677 -0.00500001 1.00963e-79 0 0
29.5514 0.424112 -0.00500001 1.07821e-79 0 0
29.6514 0.425547 -0.00500001 1.15121e-79 0 0
29.7514 0.426982 -0.00500001 1.22888e-79 0 0
29.8514 0.428417 -0.00500001 1.31152e-79 0 0
29.9514 0.429852 -0.00500001 1.39942e-79 0 0
30.0514 0.431287 -0.00500001 1.49289e-79 0 0
30.1513 0.432722 -0.00500001 1.59228e-79 0 0
30.2513 0.434157 -0.00500001 1.69793e-79 0 0
30.3513 0.435592 -0.00500001 1.81022e-79 0 0
30.4513 0.437027 -0.00500001 1.92954e-79 0 0
30.5513 0.438462 -0.00500001 2.0563e-79 0 0
30.6513 0.439897 -0.00500001 2.19096e-79 0 0
30.7513 0.441332 -0.00500001 2.33396e-79 0 0
30.8513 0.442767 -0.00500001 2.4858e-79 0 0
30.9513 0.444202 -0.00500001 2.64699e-79 0 0
31.0512 0.445637 -0.00500001 2.81808e-79 0 0
31.1512 0.447072 -0.00500001 2.99964e-79 0 0
31.2512 0.448507 -0.00500001 3.19228e-79 0 0
31.3512 0.449942 -0.00500001 3.39664e-79 0 0
31.4512 0.451377 -0.00500001 3.61338e-79 0 0
31.5512 0.452812 -0.00500001 3.84322e-79 0 0
31.6512 0.454247 -0.00500001 4.0869e-79 0 0
31.7512 0.455682 -0.00500001 4.34522e-79 0 0
31.8512 0.457117 -0.00500001 4.61899e-79 0 0
31.9512 0.458552 -0.00500001 4.90911e-79 0 0
32.0511 0.459987 -0.00500001 5.21647e-79 0 0
32.1511 0.461422 -0.00500001 5.54207e-79 0 0
32.2511 0.462857 -0.00500001 5.88691e-79 0 0
32.3511 0.464292 -0.00500001 6.25206e-79 0 0
32.4511 0.465727 -0.00500001 6.63867e-79 0 0
32.5511 0.467162 -0.00500001 7.04792e-79 0 0
32.6511 0.468597 -0.00500001 7.48107e-79 0 0
32.7511 0.470032 -0.00500001 7.93942e-79 0 0
32.8511 0.471467 -0.00500001 8.42437e-79 0 0
32.951 0.472902 -0.00500001 8.93738e-79 0 0
33.051 0.474337 -0.00500001 9.47997e-79 0 0
33.151 0.475772 -0.00500001 1.00538e-78 0 0
33.251 0.477207 -0.00500001 1.06604e-78 0 0
33.351 0.478642 -0.00500001 1.13018e-78 0 0
33.451 0.480077 -0.00500001 1.19797e-78 0 0
33.551 0.481512 -0.00500001 1.26961e-78 0 0
33.651 0.482947 -0.00500001 1.34531e-78 0 0
33.751 0.484382 -0.00500001 1.42529e-78 0 0
33.8509 0.485817 -0.00500001 1.50976e-78 0 0
33.9509 0.487252 -0.00500001 1.59898e-78 0 0
34.0509 0.488687 -0.00500001 1.6932e-78 0 0
34.1509 0.490122 -0.00500001 1.79267e-78 0 0
34.2509 0.491557 -0.00500001 1.89768e-78 0 0
34.3509 0.492992 -0.00500001 2.00851e-78 0 0
34.4509 0.494427 -0.00500001 2.12548e-78 0 0
34.5509 0.495862 -0.00500001 2.24889e-78 0 0
34.6509 0.497297 -0.00500001 2.3791e-78 0 0
34.7508 0.498732 -0.00500001 2.51645e-78 0 0
34.8508 0.500167 -0.00500001 2.6613e-78 0 0
34.9508 0.501602 -0.00500001 2.81406e-78 0 0
35.0508 0.503037 -0.00500001 2.97512e-78 0 0
35.1508 0.504472 -0.00500001 3.14491e-78 0 0
35.2508 0.505907 -0.00500001 3.32389e-78 0 0
35.3508 0.507342 -0.00500001 3.51251e-78 0 0
35.4508 0.508777 -0.00500001 3.71127e-78 0 0
35.5508 0.510212 -0.00500001 3.92068e-78 0 0
35.6507 0.511647 -0.00500001 4.14129e-78 0 0
35.7507 0.513082 -0.00500001 4.37366e-78 0 0
35.8507 0.514517 -0.00500001 4.61838e-78 0 0
35.9507 0.515952 -0.00500001 4.87607e-78 0 0
36.0507 0.517387 -0.00500001 5.14739e-78 0 0
36.1507 0.518822 -0.00500001 5.433e-78 0 0
36.2507 0.520257 -0.00500001 5.73363e-78 0 0
36.3507 0.521692 -0.00500001 6.05002e-78 0 0
36.4507 0.523127 -0.00500001 6.38294e-78 0 0
36.5506 0.524562 -0.00500001 6.73323e-78 0 0
36.6506 0.525997 -0.00500001 7.10172e-78 0 0
36.7506 0.527432 -0.00500001 7.48933e-78 0 0
36.8506 0.528867 -0.00500001 7.89697e-78 0 0
36.9506 0.530302 -0.00500001 8.32563e-78 0 0
37.0506 0.531737 -0.00500001 8.77634e-78 0 0
37.1506 0.533172 -0.00500001 9.25017e-78 0 0
37.2506 0.534607 -0.00500001 9.74823e-78 0 0
37.3506 0.536042 -0.00500001 1.02717e-77 0 0
37.4505 0.537477 -0.00500001 1.08218e-77 0 0
37.5505 0.538912 -0.00500001 1.13998e-77 0 0
37.6505 0.540347 -0.00500001 1.20071e-77 0 0
37.7505 0.541782 -0.00500001 1.2645e-77 0 0
37.8505 0.543217 -0.00500001 1.3315e-77 0 0
37.9505 0.544652 -0.00500001 1.40187e-77 0 0
38.0505 0.546087 -0.00500001 1.47576e-77 0 0
38.1505 0.547522 -0.00500001 1.55334e-77 0 0
38.2505 0.548957 -0.00500001 1.63478e-77 0 0
38.3505 0.550392 -0.00500001 1.72027e-77 0 0
38.4504 0.551827 -0.00500001 1.81e-77 0 0
38.5504 0.553262 -0.00500001 1.90416e-77 0 0
38.6504 0.554697 -0.00500001 2.00296e-77 0 0
38.7504 0.556132 -0.00500001 2.10662e-77 0 0
38.8504 0.557567 -0.00500001 2.21537e-77 0 0
38.9504 0.559002 -0.00500001 2.32943e-77 0 0
39.0504 0.560437 -0.00500001 2.44905e-77 0 0
39.1504 0.561872 -0.00500001 2.5745e-77 0 0
39.2504 0.563307 -0.00500001 2.70604e-77 0 0
39.3503 0.564742 -0.00500001 2.84394e-77 0 0
39.4503 0.566177 -0.00500001 2.9885e-77 0 0
39.5503 0.567612 -0.00500001 3.14003e-77 0 0
39.6503 0.569047 -0.00500001 3.29884e-77 0 0
39.7503 0.570482 -0.00500001 3.46526e-77 0 0
39.8503 0.571917 -0.00500001 3.63963e-77 0 0
39.9503 0.573352 -0.00500001 3.82232e-77 0 0
40.0503 0.574787 -0.00500001 4.01369e-77 0 0
40.1503 0.576222 -0.00500001 4.21415e-77 0 0
40.2502 0.577657 -0.00500001 4.4241e-77 0 0
40.3502 0.579092 -0.00500001 4.64395e-77 0 0
40.4502 0.580527 -0.00500001 4.87416e-77 0 0
40.5502 0.581962 -0.00500001 5.11519e-77 0 0
40.6502 0.583397 -0.00500001 5.3675e-77 0 0
40.7502 0.584832 -0.00500001 5.63162e-77 0 0
40.8502 0.586267 -0.00500001 5.90805e-77 0 0
40.9502 0.587702 -0.00500001 6.19733e-77 0 0
41.0502 0.589137 -0.00500001 6.50004e-77 0 0
41.1501 0.590572 -0.00500001 6.81677e-77 0 0
41.2501 0.592007 -0.00500001 7.14811e-77 0 0
41.3501 0.593442 -0.00500001 7.49473e-77 0 0
41.4501 0.594877 -0.00500001 7.85727e-77 0 0
41.5501 0.596312 -0.00500001 8.23643e-77 0 0
41.6501 0.597747 -0.00500001 8.63292e-77 0 0
41.7501 0.599182 -0.00500001 9.04751e-77 0 0
41.8501 0.600617 -0.00500001 9.48097e-77 0 0
41.9501 0.602052 -0.00500001 9.93411e-77 0 0
42.05 0.603487 -0.00500001 1.04078e-76 0 0
42.15 0.604922 -0.00500001 1.09028e-76 0 0
42.25 0.606357 -0.00500001 1.14202e-76 0 0
42.35 0.607792 -0.00500001 1.19609e-76 0 0
42.45 0.609227 -0.00500001 1.25258e-76 0 0
42.55 0.610662 -0.00500001 1.3116e-76 0 0
42.65 0.612097 -0.00500001 1.37326e-76 0 0
42.75 0.613532 -0.00500001 1.43766e-76 0 0
42.85 0.614967 -0.00500001 1.50492e-76 0 0
42.9499 0.616402 -0.00500001 1.57517e-76 0 0
43.0499 0.617837 -0.00500001 1.64853e-76 0 0
43.1499 0.619272 -0.00500001 1.72512e-76 0 0
43.2499 0.620707 -0.00500001 1.80509e-76 0 0
43.3499 0.622142 -0.00500001 1.88857e-76 0 0
43.4499 0.623577 -0.00500001 1.97571e-76 0 0
43.5499 0.625012 -0.00500001 2.06665e-76 0 0
43.6499 0.626447 -0.00500001 2.16157e-76 0 0
